SpectraSuite Data File
++++++++++++++++++++++++++++++++++++
Date: Wed Apr 16 12:02:44 CEST 2025
User: student
Dark Spectrum Present: No
Reference Spectrum Present: No
Number of Sampled Component Spectra: 1
Spectrometers: FLMT05295
Integration Time (usec): 100000 (FLMT05295)
Spectra Averaged: 1 (FLMT05295)
Boxcar Smoothing: 0 (FLMT05295)
Correct for Electrical Dark: No (FLMT05295)
Strobe/Lamp Enabled: No (FLMT05295)
Correct for Detector Non-linearity: No (FLMT05295)
Correct for Stray Light: No (FLMT05295)
Number of Pixels in Processed Spectrum: 3648
>>>>>Begin Processed Spectral Data<<<<<
350,80	2938,68
350,90	2938,68
351,00	2938,68
351,11	2946,49
351,21	2995,27
351,31	3090,89
351,42	3176,74
351,52	3108,45
351,62	3163,09
351,72	3209,92
351,83	3286,02
351,93	3098,69
352,03	3243,09
352,13	3231,38
352,24	3149,43
352,34	3204,06
352,44	3090,89
352,54	3155,28
352,65	3114,30
352,75	3342,61
352,85	3202,11
352,95	3176,74
353,06	3180,65
353,16	3172,84
353,26	3211,87
353,36	3176,74
353,47	3239,19
353,57	3170,89
353,67	3264,55
353,77	3225,53
353,88	3227,48
353,98	3250,90
354,08	3172,84
354,18	3258,70
354,29	3207,97
354,39	3151,38
354,49	3124,06
354,59	3135,77
354,70	3143,57
354,80	3262,60
354,90	3264,55
355,00	3227,48
355,11	3221,63
355,21	3252,85
355,31	3184,55
355,41	3215,77
355,52	3202,11
355,62	3233,33
355,72	3178,70
355,82	3270,41
355,93	3141,62
356,03	3149,43
356,13	3200,16
356,23	3270,41
356,33	3231,38
356,44	3213,82
356,54	3194,31
356,64	3188,45
356,74	3207,97
356,85	3184,55
356,95	3135,77
357,05	3094,79
357,15	3147,48
357,26	3149,43
357,36	3153,33
357,46	3280,16
357,56	3256,75
357,66	3153,33
357,77	3209,92
357,87	3274,31
357,97	3211,87
358,07	3188,45
358,17	3200,16
358,28	3192,36
358,38	3198,21
358,48	3225,53
358,58	3178,70
358,69	3270,41
358,79	3118,21
358,89	3100,64
358,99	3184,55
359,09	3172,84
359,20	3204,06
359,30	3116,25
359,40	3165,04
359,50	3266,51
359,60	3241,14
359,71	3182,60
359,81	3215,77
359,91	3213,82
360,01	3206,01
360,11	3168,94
360,22	3085,03
360,32	3215,77
360,42	3139,67
360,52	3280,16
360,62	3235,28
360,73	3110,40
360,83	3133,82
360,93	3059,67
361,03	3161,13
361,13	3174,79
361,24	3190,40
361,34	3307,48
361,44	3168,94
361,54	3328,95
361,64	3166,99
361,75	3206,01
361,85	3206,01
361,95	3258,70
362,05	3170,89
362,15	3319,19
362,25	3151,38
362,36	3190,40
362,46	3155,28
362,56	3184,55
362,66	3235,28
362,76	3221,63
362,87	3334,80
362,97	3145,52
363,07	3145,52
363,17	3209,92
363,27	3241,14
363,37	3211,87
363,48	3106,50
363,58	3161,13
363,68	3239,19
363,78	3172,84
363,88	3198,21
363,98	3301,63
364,09	3172,84
364,19	3211,87
364,29	3124,06
364,39	3085,03
364,49	3297,73
364,59	3225,53
364,70	3127,96
364,80	3371,88
364,90	3219,67
365,00	3248,94
365,10	3204,06
365,20	3225,53
365,31	3332,85
365,41	3104,55
365,51	3235,28
365,61	3264,55
365,71	3211,87
365,81	3180,65
365,92	3241,14
366,02	3139,67
366,12	3286,02
366,22	3112,35
366,32	3284,07
366,42	3149,43
366,52	3235,28
366,63	3067,47
366,73	3190,40
366,83	3252,85
366,93	3248,94
367,03	3108,45
367,13	3145,52
367,24	3170,89
367,34	3209,92
367,44	3246,99
367,54	3149,43
367,64	3141,62
367,74	3184,55
367,84	3219,67
367,94	3289,92
368,05	3252,85
368,15	3198,21
368,25	3207,97
368,35	3248,94
368,45	3124,06
368,55	3163,09
368,65	3178,70
368,76	3141,62
368,86	3153,33
368,96	3141,62
369,06	3180,65
369,16	3258,70
369,26	3139,67
369,36	3223,58
369,46	3206,01
369,57	3159,18
369,67	3252,85
369,77	3301,63
369,87	3325,05
369,97	3135,77
370,07	3229,43
370,17	3198,21
370,27	3262,60
370,38	3266,51
370,48	3147,48
370,58	3194,31
370,68	3217,72
370,78	3297,73
370,88	3081,13
370,98	3215,77
371,08	3188,45
371,19	3184,55
371,29	3151,38
371,39	3202,11
371,49	3145,52
371,59	3576,77
371,69	3165,04
371,79	3209,92
371,89	3286,02
371,99	3270,41
372,10	3293,82
372,20	3159,18
372,30	3137,72
372,40	3161,13
372,50	3239,19
372,60	3180,65
372,70	3202,11
372,80	3250,90
372,90	3176,74
373,00	3207,97
373,11	3194,31
373,21	3274,31
373,31	3151,38
373,41	3254,80
373,51	3161,13
373,61	3348,46
373,71	3143,57
373,81	3139,67
373,91	3231,38
374,01	3188,45
374,11	3204,06
374,22	3202,11
374,32	3149,43
374,42	3301,63
374,52	3166,99
374,62	3120,16
374,72	3262,60
374,82	3061,62
374,92	3188,45
375,02	3124,06
375,12	3155,28
375,22	3258,70
375,33	3207,97
375,43	3155,28
375,53	3176,74
375,63	3188,45
375,73	3139,67
375,83	3223,58
375,93	3207,97
376,03	3274,31
376,13	3221,63
376,23	3204,06
376,33	3176,74
376,43	3204,06
376,53	3221,63
376,63	3272,36
376,74	3163,09
376,84	3243,09
376,94	3252,85
377,04	3202,11
377,14	3297,73
377,24	3243,09
377,34	3151,38
377,44	3221,63
377,54	3250,90
377,64	3245,04
377,74	3186,50
377,84	3163,09
377,94	3120,16
378,04	3221,63
378,14	3217,72
378,25	3325,05
378,35	3161,13
378,45	3108,45
378,55	3163,09
378,65	3352,36
378,75	3204,06
378,85	3211,87
378,95	3215,77
379,05	3211,87
379,15	3202,11
379,25	3237,24
379,35	3221,63
379,45	3219,67
379,55	3202,11
379,65	3149,43
379,75	3198,21
379,85	3346,51
379,95	3217,72
380,05	3215,77
380,15	3135,77
380,25	3241,14
380,36	3206,01
380,46	3254,80
380,56	3262,60
380,66	3182,60
380,76	3157,23
380,86	3155,28
380,96	3176,74
381,06	3137,72
381,16	3225,53
381,26	3291,87
381,36	3161,13
381,46	3301,63
381,56	3172,84
381,66	3239,19
381,76	3085,03
381,86	3196,26
381,96	3094,79
382,06	3272,36
382,16	3184,55
382,26	3215,77
382,36	3237,24
382,46	3151,38
382,56	3184,55
382,66	3200,16
382,76	3118,21
382,86	3166,99
382,96	3178,70
383,06	3289,92
383,16	3239,19
383,26	3178,70
383,36	3096,74
383,46	3215,77
383,56	3112,35
383,66	3243,09
383,76	3141,62
383,86	3198,21
383,96	3141,62
384,06	3151,38
384,16	3155,28
384,27	3174,79
384,37	3209,92
384,47	3100,64
384,57	3311,39
384,67	3286,02
384,77	3206,01
384,87	3231,38
384,97	3196,26
385,07	3176,74
385,17	3157,23
385,27	3190,40
385,37	3262,60
385,47	3237,24
385,57	3118,21
385,67	3206,01
385,77	3311,39
385,87	3172,84
385,97	3147,48
386,07	3291,87
386,17	3065,52
386,27	3235,28
386,37	3256,75
386,47	3196,26
386,56	3225,53
386,66	3252,85
386,76	3170,89
386,86	3086,98
386,96	3256,75
387,06	3289,92
387,16	3202,11
387,26	3184,55
387,36	3124,06
387,46	3172,84
387,56	3221,63
387,66	3219,67
387,76	3157,23
387,86	3176,74
387,96	3116,25
388,06	3260,65
388,16	3248,94
388,26	3092,84
388,36	3141,62
388,46	3239,19
388,56	3178,70
388,66	3196,26
388,76	3168,94
388,86	3248,94
388,96	3239,19
389,06	3262,60
389,16	3077,23
389,26	3200,16
389,36	3168,94
389,46	3289,92
389,56	3262,60
389,66	3145,52
389,76	3200,16
389,86	3231,38
389,96	3276,26
390,06	3239,19
390,16	3161,13
390,26	3157,23
390,36	3243,09
390,46	3268,46
390,55	3165,04
390,65	3204,06
390,75	3190,40
390,85	3127,96
390,95	3245,04
391,05	3198,21
391,15	3108,45
391,25	3213,82
391,35	3135,77
391,45	3221,63
391,55	3104,55
391,65	3161,13
391,75	3112,35
391,85	3260,65
391,95	3272,36
392,05	3143,57
392,15	3137,72
392,25	3245,04
392,35	3221,63
392,45	3188,45
392,54	3194,31
392,64	3153,33
392,74	3104,55
392,84	3245,04
392,94	3198,21
393,04	3180,65
393,14	3157,23
393,24	3213,82
393,34	3209,92
393,44	3166,99
393,54	3268,46
393,64	3217,72
393,74	3213,82
393,84	3153,33
393,94	3221,63
394,04	3206,01
394,13	3227,48
394,23	3127,96
394,33	3200,16
394,43	3139,67
394,53	3213,82
394,63	3124,06
394,73	3209,92
394,83	3270,41
394,93	3110,40
395,03	3147,48
395,13	3153,33
395,23	3297,73
395,33	3141,62
395,42	3284,07
395,52	3168,94
395,62	3282,12
395,72	3135,77
395,82	3135,77
395,92	3174,79
396,02	3301,63
396,12	3170,89
396,22	3213,82
396,32	3178,70
396,42	3151,38
396,52	3176,74
396,61	3356,27
396,71	3190,40
396,81	3297,73
396,91	3206,01
397,01	3207,97
397,11	3114,30
397,21	3245,04
397,31	3213,82
397,41	3213,82
397,51	3075,28
397,60	3161,13
397,70	3100,64
397,80	3073,33
397,90	3159,18
398,00	3254,80
398,10	3188,45
398,20	3153,33
398,30	3202,11
398,40	3190,40
398,50	3211,87
398,59	3209,92
398,69	3168,94
398,79	3188,45
398,89	3182,60
398,99	3194,31
399,09	3090,89
399,19	3348,46
399,29	3194,31
399,39	3221,63
399,48	3122,11
399,58	3215,77
399,68	3215,77
399,78	3223,58
399,88	3233,33
399,98	3231,38
400,08	3176,74
400,18	3282,12
400,27	3258,70
400,37	3184,55
400,47	3157,23
400,57	3204,06
400,67	3163,09
400,77	3229,43
400,87	3168,94
400,97	3245,04
401,07	3178,70
401,16	3118,21
401,26	3139,67
401,36	3262,60
401,46	3198,21
401,56	3129,91
401,66	3213,82
401,76	3188,45
401,85	3231,38
401,95	3229,43
402,05	3118,21
402,15	3206,01
402,25	3237,24
402,35	3223,58
402,45	3147,48
402,54	3338,70
402,64	3213,82
402,74	3229,43
402,84	3188,45
402,94	3133,82
403,04	3131,86
403,14	3163,09
403,24	3233,33
403,33	3131,86
403,43	3170,89
403,53	3102,59
403,63	3211,87
403,73	3102,59
403,83	3137,72
403,92	3219,67
404,02	3135,77
404,12	3198,21
404,22	3198,21
404,32	3239,19
404,42	3190,40
404,52	3194,31
404,61	3186,50
404,71	3284,07
404,81	3207,97
404,91	3358,22
405,01	3055,76
405,11	3219,67
405,20	3217,72
405,30	3161,13
405,40	3145,52
405,50	3237,24
405,60	3151,38
405,70	3286,02
405,79	3129,91
405,89	3254,80
405,99	3139,67
406,09	3206,01
406,19	3079,18
406,29	3192,36
406,38	3204,06
406,48	3161,13
406,58	3174,79
406,68	3186,50
406,78	3180,65
406,88	3112,35
406,97	3297,73
407,07	3252,85
407,17	3243,09
407,27	3217,72
407,37	3166,99
407,46	3209,92
407,56	3194,31
407,66	3256,75
407,76	3207,97
407,86	3159,18
407,96	3200,16
408,05	3090,89
408,15	3180,65
408,25	3098,69
408,35	3241,14
408,45	3188,45
408,54	3094,79
408,64	3264,55
408,74	3246,99
408,84	3364,07
408,94	3163,09
409,03	3245,04
409,13	3161,13
409,23	3172,84
409,33	3180,65
409,43	3231,38
409,53	3166,99
409,62	3161,13
409,72	3245,04
409,82	3194,31
409,92	3204,06
410,02	3186,50
410,11	3172,84
410,21	3237,24
410,31	3141,62
410,41	3221,63
410,51	3172,84
410,60	3198,21
410,70	3100,64
410,80	3268,46
410,90	3186,50
410,99	3233,33
411,09	3206,01
411,19	3200,16
411,29	3284,07
411,39	3153,33
411,48	3133,82
411,58	3206,01
411,68	3219,67
411,78	3194,31
411,88	3184,55
411,97	3194,31
412,07	3209,92
412,17	3233,33
412,27	3161,13
412,36	3196,26
412,46	3270,41
412,56	3250,90
412,66	3157,23
412,76	3227,48
412,85	3202,11
412,95	3243,09
413,05	3194,31
413,15	3159,18
413,24	3276,26
413,34	3211,87
413,44	3092,84
413,54	3270,41
413,63	3225,53
413,73	3229,43
413,83	3147,48
413,93	3254,80
414,03	3192,36
414,12	3114,30
414,22	3237,24
414,32	3243,09
414,42	3157,23
414,51	3215,77
414,61	3211,87
414,71	3241,14
414,81	3151,38
414,90	3280,16
415,00	3246,99
415,10	3010,88
415,20	3090,89
415,29	3163,09
415,39	3149,43
415,49	3020,64
415,59	3147,48
415,68	3200,16
415,78	3122,11
415,88	3194,31
415,98	3126,01
416,07	3227,48
416,17	3207,97
416,27	3219,67
416,37	3192,36
416,46	3209,92
416,56	3217,72
416,66	3254,80
416,76	3237,24
416,85	3215,77
416,95	3145,52
417,05	3215,77
417,15	3165,04
417,24	3198,21
417,34	3196,26
417,44	3204,06
417,54	3243,09
417,63	3174,79
417,73	3151,38
417,83	3186,50
417,92	3151,38
418,02	3284,07
418,12	3092,84
418,22	3186,50
418,31	3165,04
418,41	3166,99
418,51	3131,86
418,61	3250,90
418,70	3278,21
418,80	3182,60
418,90	3116,25
419,00	3196,26
419,09	3229,43
419,19	3301,63
419,29	3124,06
419,38	3207,97
419,48	3155,28
419,58	3213,82
419,68	3172,84
419,77	3204,06
419,87	3126,01
419,97	3200,16
420,06	3198,21
420,16	3206,01
420,26	3213,82
420,36	3217,72
420,45	3133,82
420,55	3147,48
420,65	3190,40
420,74	3151,38
420,84	3184,55
420,94	3241,14
421,04	3270,41
421,13	3100,64
421,23	3174,79
421,33	3204,06
421,42	3278,21
421,52	3145,52
421,62	3165,04
421,71	3170,89
421,81	3077,23
421,91	3176,74
422,01	3141,62
422,10	3202,11
422,20	3227,48
422,30	3204,06
422,39	3207,97
422,49	3186,50
422,59	3235,28
422,68	3178,70
422,78	3139,67
422,88	3188,45
422,97	3180,65
423,07	3217,72
423,17	3223,58
423,27	3211,87
423,36	3272,36
423,46	3303,58
423,56	3211,87
423,65	3200,16
423,75	3174,79
423,85	3328,95
423,94	3313,34
424,04	3178,70
424,14	3176,74
424,23	3237,24
424,33	3202,11
424,43	3190,40
424,52	3141,62
424,62	3184,55
424,72	3182,60
424,81	3258,70
424,91	3151,38
425,01	3127,96
425,10	3161,13
425,20	3159,18
425,30	3272,36
425,39	3245,04
425,49	3213,82
425,59	3274,31
425,68	3291,87
425,78	3235,28
425,88	3241,14
425,97	3206,01
426,07	3186,50
426,17	3194,31
426,26	3217,72
426,36	3219,67
426,46	3166,99
426,55	3145,52
426,65	3188,45
426,75	3196,26
426,84	3151,38
426,94	3003,08
427,04	3168,94
427,13	3291,87
427,23	3139,67
427,33	3213,82
427,42	3163,09
427,52	3262,60
427,62	3166,99
427,71	3129,91
427,81	3213,82
427,91	3094,79
428,00	3153,33
428,10	3221,63
428,19	3184,55
428,29	3213,82
428,39	3280,16
428,48	3207,97
428,58	3248,94
428,68	3118,21
428,77	3198,21
428,87	3126,01
428,97	3153,33
429,06	3289,92
429,16	3100,64
429,26	3252,85
429,35	3217,72
429,45	3246,99
429,54	3092,84
429,64	3211,87
429,74	3174,79
429,83	3032,35
429,93	3348,46
430,03	3211,87
430,12	3182,60
430,22	3213,82
430,31	3241,14
430,41	3262,60
430,51	3272,36
430,60	3198,21
430,70	3170,89
430,80	3192,36
430,89	3246,99
430,99	3207,97
431,08	3202,11
431,18	3133,82
431,28	3137,72
431,37	3301,63
431,47	3184,55
431,57	3118,21
431,66	3233,33
431,76	3340,66
431,85	3129,91
431,95	3122,11
432,05	3077,23
432,14	3227,48
432,24	3196,26
432,33	3207,97
432,43	3231,38
432,53	3270,41
432,62	3131,86
432,72	3217,72
432,81	3165,04
432,91	3250,90
433,01	3137,72
433,10	3258,70
433,20	3258,70
433,29	3108,45
433,39	3174,79
433,49	3157,23
433,58	3155,28
433,68	3272,36
433,77	3227,48
433,87	3143,57
433,97	3202,11
434,06	3196,26
434,16	3188,45
434,25	3217,72
434,35	3147,48
434,45	3250,90
434,54	3233,33
434,64	3217,72
434,73	3180,65
434,83	3219,67
434,93	3217,72
435,02	3231,38
435,12	3250,90
435,21	3182,60
435,31	3120,16
435,41	3188,45
435,50	3133,82
435,60	3159,18
435,69	3268,46
435,79	3178,70
435,88	3198,21
435,98	3170,89
436,08	3198,21
436,17	3206,01
436,27	3274,31
436,36	3221,63
436,46	3270,41
436,55	3198,21
436,65	3307,48
436,75	3221,63
436,84	3291,87
436,94	3106,50
437,03	3104,55
437,13	3194,31
437,22	3268,46
437,32	3170,89
437,42	3129,91
437,51	3245,04
437,61	3149,43
437,70	3229,43
437,80	3149,43
437,89	3114,30
437,99	3252,85
438,09	3241,14
438,18	3163,09
438,28	3151,38
438,37	3106,50
438,47	3252,85
438,56	3231,38
438,66	3266,51
438,75	3151,38
438,85	3278,21
438,95	3229,43
439,04	3200,16
439,14	3276,26
439,23	3139,67
439,33	3215,77
439,42	3233,33
439,52	3196,26
439,61	3307,48
439,71	3239,19
439,80	3207,97
439,90	3227,48
440,00	3256,75
440,09	3198,21
440,19	3340,66
440,28	3110,40
440,38	3190,40
440,47	3336,75
440,57	3256,75
440,66	3200,16
440,76	3209,92
440,85	3190,40
440,95	3276,26
441,04	3336,75
441,14	3246,99
441,24	3231,38
441,33	3186,50
441,43	3151,38
441,52	3116,25
441,62	3200,16
441,71	3270,41
441,81	3126,01
441,90	3272,36
442,00	3282,12
442,09	3258,70
442,19	3192,36
442,28	3217,72
442,38	3184,55
442,47	3252,85
442,57	3202,11
442,66	3176,74
442,76	3254,80
442,85	3192,36
442,95	3194,31
443,04	3215,77
443,14	3129,91
443,24	3239,19
443,33	3403,10
443,43	3239,19
443,52	3239,19
443,62	3196,26
443,71	3258,70
443,81	3223,58
443,90	3137,72
444,00	3141,62
444,09	3241,14
444,19	3245,04
444,28	3336,75
444,38	3325,05
444,47	3202,11
444,57	3184,55
444,66	3299,68
444,76	3206,01
444,85	3246,99
444,95	3313,34
445,04	3227,48
445,14	3174,79
445,23	3198,21
445,33	3344,56
445,42	3284,07
445,52	3245,04
445,61	3127,96
445,71	3248,94
445,80	3248,94
445,90	3198,21
445,99	3334,80
446,09	3221,63
446,18	3196,26
446,28	3270,41
446,37	3221,63
446,47	3180,65
446,56	3303,58
446,66	3303,58
446,75	3254,80
446,84	3264,55
446,94	3213,82
447,03	3313,34
447,13	3282,12
447,22	3325,05
447,32	3243,09
447,41	3330,90
447,51	3323,09
447,60	3252,85
447,70	3313,34
447,79	3327,00
447,89	3334,80
447,98	3299,68
448,08	3182,60
448,17	3248,94
448,27	3204,06
448,36	3321,14
448,46	3307,48
448,55	3346,51
448,65	3360,17
448,74	3248,94
448,83	3397,24
448,93	3369,93
449,02	3366,02
449,12	3350,41
449,21	3286,02
449,31	3340,66
449,40	3416,76
449,50	3352,36
449,59	3348,46
449,69	3297,73
449,78	3305,53
449,88	3287,97
449,97	3381,63
450,06	3274,31
450,16	3342,61
450,25	3440,17
450,35	3446,03
450,44	3344,56
450,54	3389,44
450,63	3446,03
450,73	3151,38
450,82	3381,63
450,91	3319,19
451,01	3399,20
451,10	3440,17
451,20	3385,54
451,29	3364,07
451,39	3328,95
451,48	3436,27
451,58	3397,24
451,67	3416,76
451,76	3516,27
451,86	3463,59
451,95	3469,44
452,05	3293,82
452,14	3377,73
452,24	3416,76
452,33	3506,52
452,43	3354,31
452,52	3418,71
452,61	3397,24
452,71	3447,98
452,80	3391,39
452,90	3440,17
452,99	3567,01
453,09	3477,25
453,18	3467,49
453,27	3467,49
453,37	3373,83
453,46	3461,64
453,56	3389,44
453,65	3500,66
453,75	3539,69
453,84	3504,57
453,93	3529,93
454,03	3477,25
454,12	3514,32
454,22	3479,20
454,31	3500,66
454,40	3547,50
454,50	3510,42
454,59	3426,51
454,69	3479,20
454,78	3494,81
454,88	3483,10
454,97	3545,54
455,06	3504,57
455,16	3502,62
455,25	3553,35
455,35	3586,52
455,44	3598,23
455,53	3504,57
455,63	3580,67
455,72	3582,62
455,82	3604,08
455,91	3508,47
456,00	3598,23
456,10	3619,69
456,19	3547,50
456,29	3506,52
456,38	3627,50
456,47	3559,20
456,57	3627,50
456,66	3545,54
456,76	3570,91
456,85	3674,33
456,94	3625,55
457,04	3592,38
457,13	3582,62
457,23	3623,60
457,32	3697,75
457,41	3709,45
457,51	3637,26
457,60	3719,21
457,70	3758,24
457,79	3658,72
457,88	3582,62
457,98	3648,96
458,07	3814,83
458,16	3799,22
458,26	3689,94
458,35	3664,57
458,45	3713,36
458,54	3756,29
458,63	3693,84
458,73	3771,90
458,82	3686,04
458,91	3728,97
459,01	3871,41
459,10	3762,14
459,20	3754,33
459,29	3793,36
459,38	3709,45
459,48	3820,68
459,57	3875,32
459,66	3851,90
459,76	3840,19
459,85	3769,95
459,95	3849,95
460,04	3869,46
460,13	3892,88
460,23	3894,83
460,32	3836,29
460,41	3859,71
460,51	3869,46
460,60	3920,20
460,69	3933,86
460,79	3857,75
460,88	4056,79
460,98	3803,12
461,07	3914,34
461,16	3875,32
461,26	4066,55
461,35	4009,96
461,44	3953,37
461,54	4052,89
461,63	3998,25
461,72	3887,02
461,82	4099,72
461,91	4084,11
462,00	4082,16
462,10	3965,08
462,19	4191,43
462,28	4164,11
462,38	4054,84
462,47	4249,97
462,57	4191,43
462,66	4066,55
462,75	4208,99
462,85	4162,16
462,94	4248,02
463,03	4210,94
463,13	4292,90
463,22	4226,55
463,31	4273,39
463,41	4109,47
463,50	4134,84
463,59	4351,44
463,69	4146,55
463,78	4326,07
463,87	4400,22
463,97	4462,66
464,06	4244,12
464,15	4351,44
464,25	4195,33
464,34	4372,90
464,43	4365,10
464,53	4474,37
464,62	4529,01
464,71	4388,51
464,81	4542,67
464,90	4484,13
464,99	4452,91
465,08	4503,64
465,18	4421,69
465,27	4456,81
465,36	4579,74
465,46	4466,57
465,55	4421,69
465,64	4376,81
465,74	4542,67
465,83	4583,64
465,92	4452,91
466,02	4552,42
466,11	4575,84
466,20	4468,52
466,30	4585,60
466,39	4622,67
466,48	4581,69
466,57	4644,14
466,67	4587,55
466,76	4665,60
466,85	4616,82
466,95	4800,24
467,04	4690,97
467,13	4595,35
467,23	4774,87
467,32	4739,75
467,41	4628,53
467,51	4886,10
467,60	4716,33
467,69	4774,87
467,78	4741,70
467,88	4948,54
467,97	4679,26
468,06	5085,13
468,16	4923,17
468,25	4813,90
468,34	4769,02
468,43	4923,17
468,53	4880,25
468,62	4817,80
468,71	4927,08
468,81	4948,54
468,90	4927,08
468,99	4862,68
469,08	4878,29
469,18	4968,05
469,27	4917,32
469,36	4913,42
469,46	4917,32
469,55	5065,62
469,64	5024,64
469,73	4878,29
469,83	5020,74
469,92	5053,91
470,01	4866,59
470,11	4977,81
470,20	4940,74
470,29	4968,05
470,38	4958,30
470,48	5032,45
470,57	4958,30
470,66	5046,11
470,75	4927,08
470,85	5085,13
470,94	4938,78
471,03	4913,42
471,13	5009,03
471,22	4995,37
471,31	5016,84
471,40	5005,13
471,50	4973,91
471,59	5048,06
471,68	5022,69
471,77	5094,89
471,87	4921,22
471,96	5007,08
472,05	4872,44
472,14	4981,71
472,24	4895,86
472,33	4899,76
472,42	5083,18
472,51	5057,82
472,61	4932,93
472,70	4878,29
472,79	4872,44
472,88	4878,29
472,98	4850,98
473,07	4901,71
473,16	5007,08
473,25	4940,74
473,35	4991,47
473,44	4973,91
473,53	4913,42
473,62	4946,59
473,72	4948,54
473,81	4958,30
473,90	4929,03
473,99	4876,34
474,09	4997,32
474,18	4956,35
474,27	4971,96
474,36	4989,52
474,46	4767,07
474,55	4921,22
474,64	4870,49
474,73	4850,98
474,82	4913,42
474,92	4790,48
475,01	4942,69
475,10	4843,17
475,19	4716,33
475,29	4903,66
475,38	4856,83
475,47	4932,93
475,56	4685,11
475,66	4772,92
475,75	4788,53
475,84	4792,44
475,93	4843,17
476,02	4753,41
476,12	4642,18
476,21	4763,17
476,30	4745,60
476,39	4689,02
476,49	4636,33
476,58	4724,14
476,67	4819,75
476,76	4648,04
476,85	4798,29
476,95	4690,97
477,04	4854,88
477,13	4790,48
477,22	4692,92
477,31	4595,35
477,41	4620,72
477,50	4687,06
477,59	4579,74
477,68	4690,97
477,77	4677,31
477,87	4663,65
477,96	4696,82
478,05	4786,58
478,14	4698,77
478,23	4612,91
478,33	4634,38
478,42	4751,46
478,51	4632,43
478,60	4585,60
478,69	4530,96
478,79	4575,84
478,88	4607,06
478,97	4404,12
479,06	4560,23
479,15	4681,21
479,25	4445,10
479,34	4550,47
479,43	4527,06
479,52	4503,64
479,61	4626,57
479,71	4439,25
479,80	4472,42
479,89	4577,79
479,98	4542,67
480,07	4431,44
480,17	4450,96
480,26	4433,39
480,35	4560,23
480,44	4495,84
480,53	4458,76
480,62	4390,46
480,72	4406,08
480,81	4488,03
480,90	4558,28
480,99	4605,11
481,08	4423,64
481,17	4466,57
481,27	4386,56
481,36	4515,35
481,45	4441,20
481,54	4349,49
481,63	4363,15
481,73	4370,95
481,82	4470,47
481,91	4382,66
482,00	4449,00
482,09	4495,84
482,18	4324,12
482,27	4220,70
482,37	4232,41
482,46	4429,49
482,55	4351,44
482,64	4472,42
482,73	4248,02
482,82	4304,61
482,92	4271,43
483,01	4388,51
483,10	4277,29
483,19	4328,02
483,28	4337,78
483,37	4265,58
483,47	4257,77
483,56	4296,80
483,65	4302,66
483,74	4259,73
483,83	4232,41
483,92	4279,24
484,01	4290,95
484,11	4316,31
484,20	4318,27
484,29	4316,31
484,38	4242,16
484,47	4279,24
484,56	4304,61
484,65	4257,77
484,75	4331,92
484,84	4267,53
484,93	4273,39
485,02	4244,12
485,11	4177,77
485,20	4324,12
485,29	4232,41
485,39	4326,07
485,48	4259,73
485,57	4226,55
485,66	4277,29
485,75	4156,31
485,84	4222,65
485,93	4259,73
486,02	4197,28
486,12	4125,09
486,21	4220,70
486,30	4191,43
486,39	4076,30
486,48	4150,45
486,57	4099,72
486,66	4142,65
486,75	4156,31
486,85	4195,33
486,94	4142,65
487,03	4027,52
487,12	4021,67
487,21	4169,97
487,30	4115,33
487,39	4290,95
487,48	4136,79
487,58	4175,82
487,67	4140,70
487,76	4015,81
487,85	4177,77
487,94	4050,94
488,03	4140,70
488,12	4169,97
488,21	4134,84
488,30	4207,04
488,40	4136,79
488,49	4228,51
488,58	4109,47
488,67	4006,05
488,76	4070,45
488,85	4207,04
488,94	4158,26
489,03	4068,50
489,12	4121,18
489,21	4021,67
489,31	4031,42
489,40	4060,69
489,49	4062,64
489,58	4039,23
489,67	4047,03
489,76	4123,13
489,85	3961,17
489,94	4107,52
490,03	4103,62
490,12	3978,74
490,21	3988,49
490,31	4068,50
490,40	4023,62
490,49	4009,96
490,58	4013,86
490,67	3961,17
490,76	4070,45
490,85	4068,50
490,94	3928,00
491,03	4035,32
491,12	4017,76
491,21	4013,86
491,30	4004,10
491,40	3968,98
491,49	3988,49
491,58	4064,59
491,67	4004,10
491,76	3965,08
491,85	3924,10
491,94	4043,13
492,03	3888,98
492,12	3976,79
492,21	3844,10
492,30	3982,64
492,39	4031,42
492,48	3941,66
492,58	3838,24
492,67	4064,59
492,76	3820,68
492,85	3978,74
492,94	3941,66
493,03	3935,81
493,12	3842,14
493,21	3994,35
493,30	3931,90
493,39	3875,32
493,48	4047,03
493,57	3863,61
493,66	3896,78
493,75	3869,46
493,84	3846,05
493,93	3799,22
494,02	3929,95
494,12	3836,29
494,21	3928,00
494,30	3807,02
494,39	3869,46
494,48	3865,56
494,57	3974,83
494,66	3914,34
494,75	4045,08
494,84	3838,24
494,93	3816,78
495,02	3871,41
495,11	3849,95
495,20	3894,83
495,29	3826,53
495,38	3902,64
495,47	3898,73
495,56	3949,47
495,65	3840,19
495,74	3844,10
495,83	3824,58
495,92	3967,03
496,01	4000,20
496,10	3797,26
496,20	3935,81
496,29	3820,68
496,38	3828,49
496,47	3931,90
496,56	3842,14
496,65	3937,76
496,74	3830,44
496,83	3826,53
496,92	3904,59
497,01	3812,87
497,10	3857,75
497,19	3885,07
497,28	3867,51
497,37	3828,49
497,46	3803,12
497,55	3844,10
497,64	3846,05
497,73	3846,05
497,82	3963,13
497,91	3836,29
498,00	3924,10
498,09	3779,70
498,18	4002,15
498,27	3791,41
498,36	4002,15
498,45	3959,22
498,54	4011,91
498,63	3799,22
498,72	3846,05
498,81	3830,44
498,90	3918,25
498,99	3766,04
499,08	3900,68
499,17	3826,53
499,26	4009,96
499,35	3855,80
499,44	3888,98
499,53	3830,44
499,62	3875,32
499,71	3865,56
499,80	3828,49
499,89	3898,73
499,98	3799,22
500,07	3857,75
500,16	3867,51
500,25	3892,88
500,34	3951,42
500,43	3904,59
500,52	3926,05
500,61	3978,74
500,70	3959,22
500,79	3965,08
500,88	3933,86
500,97	3914,34
501,06	3861,66
501,15	3914,34
501,24	3968,98
501,33	3996,30
501,42	3877,27
501,51	4002,15
501,60	3912,39
501,69	3947,52
501,78	4062,64
501,87	3814,83
501,96	4021,67
502,05	3918,25
502,14	3963,13
502,23	4025,57
502,32	3869,46
502,41	4089,96
502,50	3918,25
502,59	3998,25
502,68	3963,13
502,77	4142,65
502,86	3965,08
502,95	4058,74
503,04	4058,74
503,12	3990,44
503,21	4002,15
503,30	4004,10
503,39	3984,59
503,48	4047,03
503,57	3937,76
503,66	4197,28
503,75	4070,45
503,84	3990,44
503,93	4021,67
504,02	4006,05
504,11	4017,76
504,20	4091,91
504,29	4019,71
504,38	4191,43
504,47	4097,77
504,56	4169,97
504,65	4043,13
504,74	4027,52
504,83	4086,06
504,92	4128,99
505,01	4089,96
505,10	4132,89
505,18	4027,52
505,27	4212,89
505,36	4183,62
505,45	4203,14
505,54	4146,55
505,63	4226,55
505,72	4173,87
505,81	4207,04
505,90	4287,04
505,99	4191,43
506,08	4107,52
506,17	4103,62
506,26	4242,16
506,35	4222,65
506,44	4265,58
506,53	4179,72
506,62	4197,28
506,70	4290,95
506,79	4183,62
506,88	4181,67
506,97	4228,51
507,06	4275,34
507,15	4166,06
507,24	4324,12
507,33	4287,04
507,42	4388,51
507,51	4380,71
507,60	4349,49
507,69	4398,27
507,78	4304,61
507,87	4285,09
507,95	4339,73
508,04	4257,77
508,13	4333,88
508,22	4404,12
508,31	4468,52
508,40	4530,96
508,49	4353,39
508,58	4300,70
508,67	4382,66
508,76	4333,88
508,85	4493,88
508,94	4501,69
509,02	4683,16
509,11	4509,49
509,20	4417,78
509,29	4466,57
509,38	4505,59
509,47	4499,74
509,56	4486,08
509,65	4534,86
509,74	4542,67
509,83	4491,93
509,91	4560,23
510,00	4532,91
510,09	4757,31
510,18	4491,93
510,27	4689,02
510,36	4675,36
510,45	4536,81
510,54	4583,64
510,63	4681,21
510,72	4536,81
510,80	4620,72
510,89	4616,82
510,98	4757,31
511,07	4735,85
511,16	4706,58
511,25	4780,73
511,34	4708,53
511,43	4575,84
511,52	4669,50
511,60	4772,92
511,69	4692,92
511,78	4788,53
511,87	4632,43
511,96	4854,88
512,05	4852,93
512,14	4745,60
512,23	4860,73
512,31	4849,02
512,40	4878,29
512,49	4919,27
512,58	4831,46
512,67	4860,73
512,76	4890,00
512,85	4952,44
512,94	4948,54
513,02	4917,32
513,11	4966,10
513,20	4907,56
513,29	4966,10
513,38	5046,11
513,47	4909,51
513,56	5010,98
513,65	5016,84
513,73	4909,51
513,82	5024,64
513,91	5038,30
514,00	5022,69
514,09	5028,55
514,18	5065,62
514,27	5153,43
514,35	5141,72
514,44	5067,57
514,53	5038,30
514,62	5081,23
514,71	5182,70
514,80	5231,48
514,89	5174,89
514,97	5192,46
515,06	5213,92
515,15	5198,31
515,24	5272,46
515,33	5213,92
515,42	5143,67
515,51	5249,04
515,59	5373,93
515,68	5266,61
515,77	5206,12
515,86	5280,27
515,95	5270,51
516,04	5286,12
516,12	5340,76
516,21	5346,61
516,30	5395,39
516,39	5288,07
516,48	5401,25
516,57	5409,05
516,65	5303,68
516,74	5331,00
516,83	5368,07
516,92	5334,90
517,01	5405,15
517,10	5531,99
517,18	5510,52
517,27	5500,76
517,36	5352,46
517,45	5375,88
517,54	5465,64
517,63	5440,27
517,71	5504,67
517,80	5516,37
517,89	5450,03
517,98	5569,06
518,07	5440,27
518,16	5412,95
518,24	5555,40
518,33	5502,72
518,42	5563,21
518,51	5498,81
518,60	5547,60
518,68	5446,13
518,77	5487,10
518,86	5477,35
518,95	5528,08
519,04	5688,09
519,13	5535,89
519,21	5561,26
519,30	5688,09
519,39	5557,35
519,48	5512,47
519,57	5471,49
519,65	5504,67
519,74	5574,91
519,83	5592,48
519,92	5565,16
520,01	5588,57
520,09	5494,91
520,18	5576,87
520,27	5633,45
520,36	5342,71
520,45	5600,28
520,53	5572,96
520,62	5625,65
520,71	5660,77
520,80	5555,40
520,89	5481,25
520,97	5697,85
521,06	5574,91
521,15	5611,99
521,24	5610,04
521,33	5600,28
521,41	5502,72
521,50	5713,46
521,59	5639,31
521,68	5586,62
521,76	5637,36
521,85	5600,28
521,94	5896,88
522,03	5543,69
522,12	5731,02
522,20	5565,16
522,29	5543,69
522,38	5703,70
522,47	5658,82
522,55	5608,09
522,64	5736,87
522,73	5697,85
522,82	5746,63
522,91	5670,53
522,99	5574,91
523,08	5647,11
523,17	5588,57
523,26	5557,35
523,34	5586,62
523,43	5518,33
523,52	5539,79
523,61	5635,41
523,70	5670,53
523,78	5649,06
523,87	5545,64
523,96	5586,62
524,05	5463,69
524,13	5613,94
524,22	5571,01
524,31	5582,72
524,40	5571,01
524,48	5510,52
524,57	5611,99
524,66	5477,35
524,75	5572,96
524,83	5489,06
524,92	5592,48
525,01	5510,52
525,10	5411,00
525,18	5537,84
525,27	5483,20
525,36	5492,96
525,45	5541,74
525,53	5502,72
525,62	5567,11
525,71	5446,13
525,80	5473,45
525,88	5530,03
525,97	5424,66
526,06	5494,91
526,15	5531,99
526,23	5451,98
526,32	5496,86
526,41	5346,61
526,50	5412,95
526,58	5227,58
526,67	5469,54
526,76	5412,95
526,85	5327,10
526,93	5360,27
527,02	5352,46
527,11	5360,27
527,19	5356,37
527,28	5379,78
527,37	5332,95
527,46	5270,51
527,54	5371,98
527,63	5393,44
527,72	5491,01
527,81	5370,03
527,89	5291,97
527,98	5327,10
528,07	5194,41
528,15	5270,51
528,24	5373,93
528,33	5354,42
528,42	5141,72
528,50	5169,04
528,59	5237,34
528,68	5290,02
528,76	5366,12
528,85	5266,61
528,94	5202,21
529,03	5139,77
529,11	5200,26
529,20	5130,01
529,29	5239,29
529,37	5118,31
529,46	5063,67
529,55	5077,33
529,64	5057,82
529,72	5069,52
529,81	5126,11
529,90	5211,97
529,98	5262,70
530,07	5022,69
530,16	5094,89
530,25	4997,32
530,33	5036,35
530,42	5042,20
530,51	4985,62
530,59	5009,03
530,68	5096,84
530,77	5065,62
530,85	5030,50
530,94	4938,78
531,03	4888,05
531,11	4870,49
531,20	5018,79
531,29	4981,71
531,38	5036,35
531,46	4847,07
531,55	4932,93
531,64	4936,83
531,72	4897,81
531,81	4839,27
531,90	5112,45
531,98	4866,59
532,07	4845,12
532,16	4899,76
532,24	4940,74
532,33	4823,66
532,42	4919,27
532,50	4794,39
532,59	4704,63
532,68	4784,63
532,76	4913,42
532,85	4932,93
532,94	4741,70
533,02	4786,58
533,11	4729,99
533,20	4767,07
533,28	4702,68
533,37	4876,34
533,46	4866,59
533,55	4714,38
533,63	4646,09
533,72	4728,04
533,81	4575,84
533,89	4774,87
533,98	4847,07
534,06	4722,19
534,15	4669,50
534,24	4729,99
534,32	4544,62
534,41	4710,48
534,50	4644,14
534,58	4663,65
534,67	4722,19
534,76	4761,21
534,84	4591,45
534,93	4675,36
535,02	4665,60
535,10	4663,65
535,19	4605,11
535,28	4612,91
535,36	4562,18
535,45	4560,23
535,54	4630,48
535,62	4601,21
535,71	4640,23
535,80	4575,84
535,88	4644,14
535,97	4530,96
536,05	4521,20
536,14	4447,05
536,23	4476,32
536,31	4612,91
536,40	4447,05
536,49	4542,67
536,57	4544,62
536,66	4447,05
536,75	4511,45
536,83	4532,91
536,92	4573,89
537,00	4402,17
537,09	4439,25
537,18	4394,37
537,26	4400,22
537,35	4507,54
537,44	4484,13
537,52	4392,42
537,61	4488,03
537,70	4431,44
537,78	4489,98
537,87	4392,42
537,95	4462,66
538,04	4316,31
538,13	4423,64
538,21	4382,66
538,30	4275,34
538,39	4372,90
538,47	4390,46
538,56	4478,27
538,64	4353,39
538,73	4411,93
538,82	4347,54
538,90	4376,81
538,99	4329,97
539,07	4290,95
539,16	4292,90
539,25	4398,27
539,33	4341,68
539,42	4298,75
539,50	4333,88
539,59	4257,77
539,68	4302,66
539,76	4308,51
539,85	4173,87
539,93	4343,63
540,02	4322,17
540,11	4289,00
540,19	4285,09
540,28	4232,41
540,36	4236,31
540,45	4244,12
540,54	4271,43
540,62	4277,29
540,71	4238,26
540,79	4251,92
540,88	4326,07
540,97	4183,62
541,05	4285,09
541,14	4203,14
541,22	4341,68
541,31	4175,82
541,40	4324,12
541,48	4152,40
541,57	4177,77
541,65	4086,06
541,74	4242,16
541,83	4152,40
541,91	4168,01
542,00	4101,67
542,08	4193,38
542,17	4099,72
542,25	4062,64
542,34	4175,82
542,43	4111,43
542,51	4144,60
542,60	4136,79
542,68	4013,86
542,77	4148,50
542,85	4025,57
542,94	4214,85
543,03	4128,99
543,11	4101,67
543,20	4056,79
543,28	4146,55
543,37	4109,47
543,45	4218,75
543,54	4052,89
543,63	4052,89
543,71	3953,37
543,80	4013,86
543,88	4111,43
543,97	4140,70
544,05	4031,42
544,14	4002,15
544,23	4156,31
544,31	4021,67
544,40	3951,42
544,48	4041,18
544,57	4091,91
544,65	4091,91
544,74	4027,52
544,82	4070,45
544,91	3904,59
545,00	4062,64
545,08	4050,94
545,17	3976,79
545,25	4002,15
545,34	4070,45
545,42	4017,76
545,51	4050,94
545,59	3900,68
545,68	4056,79
545,76	4029,47
545,85	3986,54
545,94	3933,86
546,02	3963,13
546,11	3970,93
546,19	3941,66
546,28	3842,14
546,36	3820,68
546,45	3963,13
546,53	3924,10
546,62	3848,00
546,70	3808,97
546,79	3861,66
546,87	3896,78
546,96	3951,42
547,04	3801,17
547,13	3937,76
547,22	3803,12
547,30	3929,95
547,39	3972,88
547,47	3914,34
547,56	3908,49
547,64	3836,29
547,73	3955,32
547,81	3848,00
547,90	3865,56
547,98	3916,29
548,07	3783,60
548,15	3725,07
548,24	3929,95
548,32	3808,97
548,41	3912,39
548,49	3873,37
548,58	3980,69
548,66	3846,05
548,75	3805,07
548,83	3820,68
548,92	3762,14
549,00	3894,83
549,09	3830,44
549,17	3771,90
549,26	3779,70
549,34	3848,00
549,43	3812,87
549,51	3654,82
549,60	3797,26
549,68	3840,19
549,77	3848,00
549,85	3697,75
549,94	3707,50
550,02	3760,19
550,11	3805,07
550,19	3824,58
550,28	3760,19
550,36	3832,39
550,45	3775,80
550,53	3662,62
550,62	3699,70
550,70	3709,45
550,79	3777,75
550,87	3701,65
550,96	3797,26
551,04	3711,41
551,13	3750,43
551,21	3746,53
551,30	3621,65
551,38	3721,16
551,47	3787,51
551,55	3647,01
551,64	3734,82
551,72	3734,82
551,81	3557,25
551,89	3652,87
551,98	3758,24
552,06	3674,33
552,15	3682,14
552,23	3693,84
552,32	3746,53
552,40	3764,09
552,49	3767,99
552,57	3654,82
552,65	3633,35
552,74	3594,33
552,82	3668,48
552,91	3709,45
552,99	3652,87
553,08	3561,15
553,16	3654,82
553,25	3617,74
553,33	3602,13
553,42	3578,72
553,50	3547,50
553,59	3606,03
553,67	3748,48
553,76	3561,15
553,84	3596,28
553,92	3580,67
554,01	3668,48
554,09	3535,79
554,18	3652,87
554,26	3631,40
554,35	3545,54
554,43	3680,18
554,52	3567,01
554,60	3641,16
554,69	3625,55
554,77	3496,76
554,85	3545,54
554,94	3609,94
555,02	3479,20
555,11	3592,38
555,19	3496,76
555,28	3473,35
555,36	3549,45
555,45	3553,35
555,53	3434,32
555,61	3621,65
555,70	3449,93
555,78	3529,93
555,87	3625,55
555,95	3520,18
556,04	3637,26
556,12	3633,35
556,20	3555,30
556,29	3498,71
556,37	3570,91
556,46	3504,57
556,54	3541,64
556,63	3572,86
556,71	3613,84
556,79	3549,45
556,88	3442,12
556,96	3689,94
557,05	3592,38
557,13	3559,20
557,22	3483,10
557,30	3469,44
557,38	3572,86
557,47	3574,81
557,55	3563,11
557,64	3563,11
557,72	3405,05
557,81	3518,23
557,89	3524,08
557,97	3424,56
558,06	3483,10
558,14	3516,27
558,23	3447,98
558,31	3514,32
558,39	3545,54
558,48	3516,27
558,56	3557,25
558,65	3510,42
558,73	3527,98
558,82	3496,76
558,90	3498,71
558,98	3455,78
559,07	3467,49
559,15	3574,81
559,24	3551,40
559,32	3570,91
559,40	3440,17
559,49	3438,22
559,57	3461,64
559,66	3422,61
559,74	3416,76
559,82	3444,08
559,91	3506,52
559,99	3346,51
560,07	3424,56
560,16	3432,37
560,24	3356,27
560,33	3399,20
560,41	3350,41
560,49	3451,88
560,58	3537,74
560,66	3410,90
560,75	3467,49
560,83	3395,29
560,91	3375,78
561,00	3422,61
561,08	3621,65
561,17	3551,40
561,25	3449,93
561,33	3381,63
561,42	3447,98
561,50	3492,86
561,58	3336,75
561,67	3488,96
561,75	3426,51
561,84	3487,00
561,92	3498,71
562,00	3334,80
562,09	3504,57
562,17	3422,61
562,25	3412,85
562,34	3391,39
562,42	3504,57
562,51	3336,75
562,59	3385,54
562,67	3344,56
562,76	3436,27
562,84	3449,93
562,92	3416,76
563,01	3256,75
563,09	3342,61
563,17	3360,17
563,26	3465,54
563,34	3373,83
563,43	3403,10
563,51	3348,46
563,59	3366,02
563,68	3375,78
563,76	3321,14
563,84	3352,36
563,93	3535,79
564,01	3371,88
564,09	3455,78
564,18	3381,63
564,26	3444,08
564,34	3387,49
564,43	3344,56
564,51	3366,02
564,59	3395,29
564,68	3278,21
564,76	3399,20
564,84	3323,09
564,93	3289,92
565,01	3375,78
565,09	3367,97
565,18	3299,68
565,26	3420,66
565,34	3307,48
565,43	3354,31
565,51	3319,19
565,59	3342,61
565,68	3293,82
565,76	3350,41
565,84	3342,61
565,93	3367,97
566,01	3399,20
566,09	3407,00
566,18	3379,68
566,26	3340,66
566,34	3291,87
566,43	3408,95
566,51	3311,39
566,59	3348,46
566,68	3395,29
566,76	3389,44
566,84	3315,29
566,93	3461,64
567,01	3305,53
567,09	3403,10
567,18	3274,31
567,26	3284,07
567,34	3291,87
567,43	3280,16
567,51	3356,27
567,59	3362,12
567,68	3237,24
567,76	3350,41
567,84	3246,99
567,93	3293,82
568,01	3287,97
568,09	3303,58
568,17	3289,92
568,26	3286,02
568,34	3305,53
568,42	3317,24
568,51	3278,21
568,59	3393,34
568,67	3301,63
568,76	3397,24
568,84	3332,85
568,92	3426,51
569,00	3307,48
569,09	3336,75
569,17	3278,21
569,25	3442,12
569,34	3379,68
569,42	3276,26
569,50	3303,58
569,59	3407,00
569,67	3379,68
569,75	3278,21
569,83	3354,31
569,92	3266,51
570,00	3209,92
570,08	3274,31
570,17	3239,19
570,25	3381,63
570,33	3276,26
570,41	3219,67
570,50	3408,95
570,58	3313,34
570,66	3317,24
570,75	3401,15
570,83	3327,00
570,91	3334,80
570,99	3354,31
571,08	3387,49
571,16	3327,00
571,24	3340,66
571,32	3407,00
571,41	3217,72
571,49	3293,82
571,57	3243,09
571,66	3282,12
571,74	3397,24
571,82	3204,06
571,90	3430,42
571,99	3358,22
572,07	3323,09
572,15	3204,06
572,23	3295,78
572,32	3264,55
572,40	3133,82
572,48	3280,16
572,56	3291,87
572,65	3286,02
572,73	3414,81
572,81	3338,70
572,89	3204,06
572,98	3369,93
573,06	3231,38
573,14	3373,83
573,22	3354,31
573,31	3268,46
573,39	3362,12
573,47	3293,82
573,55	3391,39
573,64	3229,43
573,72	3354,31
573,80	3268,46
573,88	3211,87
573,97	3299,68
574,05	3245,04
574,13	3217,72
574,21	3190,40
574,30	3237,24
574,38	3264,55
574,46	3334,80
574,54	3262,60
574,63	3268,46
574,71	3358,22
574,79	3227,48
574,87	3309,43
574,96	3301,63
575,04	3245,04
575,12	3200,16
575,20	3248,94
575,28	3246,99
575,37	3243,09
575,45	3276,26
575,53	3356,27
575,61	3211,87
575,70	3344,56
575,78	3213,82
575,86	3252,85
575,94	3184,55
576,03	3213,82
576,11	3276,26
576,19	3229,43
576,27	3264,55
576,35	3246,99
576,44	3287,97
576,52	3245,04
576,60	3225,53
576,68	3278,21
576,76	3219,67
576,85	3266,51
576,93	3252,85
577,01	3297,73
577,09	3270,41
577,18	3225,53
577,26	3287,97
577,34	3260,65
577,42	3268,46
577,50	3157,23
577,59	3176,74
577,67	3305,53
577,75	3342,61
577,83	3229,43
577,91	3182,60
578,00	3223,58
578,08	3295,78
578,16	3239,19
578,24	3241,14
578,32	3272,36
578,41	3243,09
578,49	3250,90
578,57	3321,14
578,65	3200,16
578,73	3200,16
578,82	3385,54
578,90	3272,36
578,98	3194,31
579,06	3246,99
579,14	3278,21
579,22	3194,31
579,31	3239,19
579,39	3215,77
579,47	3204,06
579,55	3270,41
579,63	3231,38
579,72	3258,70
579,80	3258,70
579,88	3147,48
579,96	3254,80
580,04	3321,14
580,12	3174,79
580,21	3209,92
580,29	3286,02
580,37	3332,85
580,45	3366,02
580,53	3287,97
580,62	3204,06
580,70	3274,31
580,78	3227,48
580,86	3184,55
580,94	3258,70
581,02	3182,60
581,11	3159,18
581,19	3338,70
581,27	3231,38
581,35	3315,29
581,43	3182,60
581,51	3237,24
581,60	3248,94
581,68	3243,09
581,76	3256,75
581,84	3291,87
581,92	3225,53
582,00	3157,23
582,08	3256,75
582,17	3239,19
582,25	3221,63
582,33	3266,51
582,41	3280,16
582,49	3176,74
582,57	3293,82
582,66	3287,97
582,74	3229,43
582,82	3274,31
582,90	3106,50
582,98	3336,75
583,06	3293,82
583,14	3252,85
583,23	3166,99
583,31	3231,38
583,39	3256,75
583,47	3172,84
583,55	3342,61
583,63	3217,72
583,71	3098,69
583,80	3137,72
583,88	3124,06
583,96	3211,87
584,04	3243,09
584,12	3239,19
584,20	3204,06
584,28	3293,82
584,36	3202,11
584,45	3081,13
584,53	3207,97
584,61	3272,36
584,69	3258,70
584,77	3188,45
584,85	3131,86
584,93	3153,33
585,01	3266,51
585,10	3221,63
585,18	3225,53
585,26	3235,28
585,34	3204,06
585,42	3213,82
585,50	3241,14
585,58	3219,67
585,66	3362,12
585,75	3241,14
585,83	3217,72
585,91	3227,48
585,99	3276,26
586,07	3194,31
586,15	3149,43
586,23	3188,45
586,31	3284,07
586,39	3213,82
586,48	3328,95
586,56	3194,31
586,64	3245,04
586,72	3248,94
586,80	3245,04
586,88	3202,11
586,96	3188,45
587,04	3307,48
587,12	3188,45
587,20	3209,92
587,29	3246,99
587,37	3151,38
587,45	3276,26
587,53	3252,85
587,61	3231,38
587,69	3282,12
587,77	3209,92
587,85	3221,63
587,93	3221,63
588,01	3133,82
588,09	3248,94
588,18	3243,09
588,26	3151,38
588,34	3139,67
588,42	3291,87
588,50	3223,58
588,58	3350,41
588,66	3186,50
588,74	3262,60
588,82	3229,43
588,90	3262,60
588,98	3215,77
589,06	3246,99
589,15	3243,09
589,23	3241,14
589,31	3200,16
589,39	3223,58
589,47	3211,87
589,55	3334,80
589,63	3262,60
589,71	3328,95
589,79	3200,16
589,87	3186,50
589,95	3157,23
590,03	3196,26
590,11	3159,18
590,19	3227,48
590,28	3223,58
590,36	3159,18
590,44	3209,92
590,52	3260,65
590,60	3170,89
590,68	3258,70
590,76	3112,35
590,84	3270,41
590,92	3170,89
591,00	3243,09
591,08	3245,04
591,16	3202,11
591,24	3145,52
591,32	3328,95
591,40	3166,99
591,48	3237,24
591,56	3250,90
591,64	3219,67
591,73	3182,60
591,81	3280,16
591,89	3186,50
591,97	3151,38
592,05	3170,89
592,13	3198,21
592,21	3153,33
592,29	3262,60
592,37	3178,70
592,45	3161,13
592,53	3127,96
592,61	3219,67
592,69	3239,19
592,77	3219,67
592,85	3301,63
592,93	3213,82
593,01	3217,72
593,09	3328,95
593,17	3155,28
593,25	3246,99
593,33	3213,82
593,41	3227,48
593,49	3307,48
593,57	3239,19
593,65	3207,97
593,73	3237,24
593,81	3190,40
593,89	3178,70
593,97	3098,69
594,06	3250,90
594,14	3209,92
594,22	3268,46
594,30	3176,74
594,38	3215,77
594,46	3307,48
594,54	3250,90
594,62	3264,55
594,70	3309,43
594,78	3262,60
594,86	3163,09
594,94	3147,48
595,02	3258,70
595,10	3204,06
595,18	3207,97
595,26	3223,58
595,34	3137,72
595,42	3233,33
595,50	3268,46
595,58	3176,74
595,66	3313,34
595,74	3215,77
595,82	3360,17
595,90	3229,43
595,98	3325,05
596,06	3202,11
596,14	3250,90
596,22	3354,31
596,30	3280,16
596,38	3282,12
596,46	3223,58
596,54	3225,53
596,62	3268,46
596,70	3180,65
596,78	3264,55
596,86	3192,36
596,94	3227,48
597,02	3366,02
597,10	3241,14
597,18	3219,67
597,26	3309,43
597,34	3206,01
597,42	3207,97
597,50	3286,02
597,58	3280,16
597,66	3211,87
597,74	3190,40
597,82	3145,52
597,89	3258,70
597,97	3270,41
598,05	3245,04
598,13	3120,16
598,21	3223,58
598,29	3182,60
598,37	3243,09
598,45	3108,45
598,53	3276,26
598,61	3145,52
598,69	3174,79
598,77	3198,21
598,85	3211,87
598,93	3151,38
599,01	3258,70
599,09	3381,63
599,17	3303,58
599,25	3206,01
599,33	3272,36
599,41	3217,72
599,49	3262,60
599,57	3250,90
599,65	3237,24
599,73	3254,80
599,81	3239,19
599,89	3243,09
599,97	3206,01
600,05	3284,07
600,13	3172,84
600,20	3344,56
600,28	3284,07
600,36	3241,14
600,44	3194,31
600,52	3291,87
600,60	3217,72
600,68	3213,82
600,76	3188,45
600,84	3161,13
600,92	3241,14
601,00	3243,09
601,08	3346,51
601,16	3206,01
601,24	3262,60
601,32	3293,82
601,40	3295,78
601,48	3198,21
601,56	3280,16
601,63	3204,06
601,71	3371,88
601,79	3145,52
601,87	3252,85
601,95	3211,87
602,03	3268,46
602,11	3309,43
602,19	3231,38
602,27	3237,24
602,35	3237,24
602,43	3233,33
602,51	3282,12
602,59	3235,28
602,67	3248,94
602,74	3229,43
602,82	3270,41
602,90	3241,14
602,98	3225,53
603,06	3364,07
603,14	3311,39
603,22	3168,94
603,30	3274,31
603,38	3200,16
603,46	3301,63
603,54	3219,67
603,62	3289,92
603,69	3241,14
603,77	3254,80
603,85	3262,60
603,93	3272,36
604,01	3229,43
604,09	3301,63
604,17	3227,48
604,25	3274,31
604,33	3157,23
604,41	3323,09
604,49	3227,48
604,56	3233,33
604,64	3213,82
604,72	3295,78
604,80	3315,29
604,88	3385,54
604,96	3274,31
605,04	3350,41
605,12	3328,95
605,20	3260,65
605,27	3276,26
605,35	3350,41
605,43	3266,51
605,51	3241,14
605,59	3241,14
605,67	3229,43
605,75	3262,60
605,83	3354,31
605,91	3340,66
605,98	3289,92
606,06	3178,70
606,14	3227,48
606,22	3276,26
606,30	3215,77
606,38	3229,43
606,46	3348,46
606,54	3272,36
606,62	3237,24
606,69	3223,58
606,77	3209,92
606,85	3250,90
606,93	3180,65
607,01	3272,36
607,09	3262,60
607,17	3289,92
607,25	3233,33
607,32	3377,73
607,40	3243,09
607,48	3305,53
607,56	3397,24
607,64	3192,36
607,72	3287,97
607,80	3280,16
607,87	3280,16
607,95	3250,90
608,03	3258,70
608,11	3258,70
608,19	3262,60
608,27	3313,34
608,35	3260,65
608,42	3315,29
608,50	3284,07
608,58	3219,67
608,66	3264,55
608,74	3346,51
608,82	3295,78
608,90	3268,46
608,97	3369,93
609,05	3379,68
609,13	3549,45
609,21	3293,82
609,29	3311,39
609,37	3248,94
609,45	3325,05
609,52	3432,37
609,60	3344,56
609,68	3246,99
609,76	3262,60
609,84	3309,43
609,92	3264,55
609,99	3315,29
610,07	3336,75
610,15	3332,85
610,23	3360,17
610,31	3297,73
610,39	3280,16
610,46	3315,29
610,54	3418,71
610,62	3358,22
610,70	3252,85
610,78	3375,78
610,86	3354,31
610,93	3246,99
611,01	3383,58
611,09	3389,44
611,17	3260,65
611,25	3303,58
611,33	3317,24
611,40	3401,15
611,48	3403,10
611,56	3327,00
611,64	3352,36
611,72	3356,27
611,79	3327,00
611,87	3407,00
611,95	3328,95
612,03	3237,24
612,11	3328,95
612,19	3461,64
612,26	3342,61
612,34	3346,51
612,42	3276,26
612,50	3412,85
612,58	3373,83
612,65	3403,10
612,73	3291,87
612,81	3287,97
612,89	3340,66
612,97	3317,24
613,04	3360,17
613,12	3346,51
613,20	3375,78
613,28	3344,56
613,36	3391,39
613,43	3315,29
613,51	3385,54
613,59	3432,37
613,67	3483,10
613,75	3327,00
613,82	3479,20
613,90	3307,48
613,98	3420,66
614,06	3407,00
614,14	3469,44
614,21	3369,93
614,29	3428,46
614,37	3356,27
614,45	3506,52
614,52	3424,56
614,60	3307,48
614,68	3332,85
614,76	3481,15
614,84	3410,90
614,91	3451,88
614,99	3323,09
615,07	3469,44
615,15	3438,22
615,23	3399,20
615,30	3367,97
615,38	3381,63
615,46	3311,39
615,54	3455,78
615,61	3412,85
615,69	3526,03
615,77	3422,61
615,85	3391,39
615,92	3412,85
616,00	3543,59
616,08	3412,85
616,16	3342,61
616,24	3381,63
616,31	3465,54
616,39	3485,05
616,47	3520,18
616,55	3496,76
616,62	3422,61
616,70	3465,54
616,78	3405,05
616,86	3512,37
616,93	3625,55
617,01	3479,20
617,09	3543,59
617,17	3457,73
617,24	3531,88
617,32	3440,17
617,40	3553,35
617,48	3344,56
617,55	3379,68
617,63	3490,91
617,71	3459,69
617,79	3496,76
617,86	3479,20
617,94	3438,22
618,02	3422,61
618,10	3403,10
618,17	3570,91
618,25	3541,64
618,33	3510,42
618,41	3471,39
618,48	3547,50
618,56	3467,49
618,64	3529,93
618,72	3475,30
618,79	3447,98
618,87	3428,46
618,95	3578,72
619,02	3449,93
619,10	3531,88
619,18	3565,06
619,26	3504,57
619,33	3588,47
619,41	3543,59
619,49	3510,42
619,57	3568,96
619,64	3582,62
619,72	3553,35
619,80	3512,37
619,87	3674,33
619,95	3570,91
620,03	3551,40
620,11	3570,91
620,18	3516,27
620,26	3561,15
620,34	3553,35
620,41	3652,87
620,49	3592,38
620,57	3557,25
620,65	3551,40
620,72	3598,23
620,80	3660,67
620,88	3648,96
620,95	3635,30
621,03	3625,55
621,11	3707,50
621,19	3621,65
621,26	3615,79
621,34	3635,30
621,42	3615,79
621,49	3586,52
621,57	3754,33
621,65	3645,06
621,73	3728,97
621,80	3594,33
621,88	3580,67
621,96	3750,43
622,03	3691,89
622,11	3592,38
622,19	3705,55
622,26	3771,90
622,34	3760,19
622,42	3734,82
622,49	3762,14
622,57	3670,43
622,65	3684,09
622,73	3725,07
622,80	3764,09
622,88	3668,48
622,96	3684,09
623,03	3613,84
623,11	3727,02
623,19	3754,33
623,26	3777,75
623,34	3750,43
623,42	3680,18
623,49	3748,48
623,57	3715,31
623,65	3687,99
623,72	3740,68
623,80	3748,48
623,88	3758,24
623,95	3750,43
624,03	3787,51
624,11	3781,65
624,18	3734,82
624,26	3834,34
624,34	3732,87
624,41	3805,07
624,49	3799,22
624,57	3814,83
624,64	3773,85
624,72	3836,29
624,80	3771,90
624,87	3861,66
624,95	3760,19
625,03	3869,46
625,10	3849,95
625,18	3914,34
625,26	3849,95
625,33	3908,49
625,41	3892,88
625,49	3797,26
625,56	3869,46
625,64	3855,80
625,72	3877,27
625,79	3853,85
625,87	3877,27
625,95	4009,96
626,02	3871,41
626,10	3931,90
626,18	3849,95
626,25	4037,28
626,33	3877,27
626,40	3875,32
626,48	4099,72
626,56	3836,29
626,63	3937,76
626,71	3982,64
626,79	3920,20
626,86	3922,15
626,94	4006,05
627,02	3998,25
627,09	4062,64
627,17	3933,86
627,24	4002,15
627,32	3965,08
627,40	4117,28
627,47	4095,82
627,55	4144,60
627,63	4017,76
627,70	3965,08
627,78	4134,84
627,85	3998,25
627,93	4164,11
628,01	4041,18
628,08	4121,18
628,16	3986,54
628,24	4148,50
628,31	4103,62
628,39	4048,98
628,46	4207,04
628,54	4033,37
628,62	4002,15
628,69	4088,01
628,77	4181,67
628,85	4218,75
628,92	4162,16
629,00	4099,72
629,07	4169,97
629,15	4150,45
629,23	4353,39
629,30	4242,16
629,38	4207,04
629,45	4207,04
629,53	4263,63
629,61	4099,72
629,68	4205,09
629,76	4273,39
629,83	4156,31
629,91	4312,41
629,99	4449,00
630,06	4329,97
630,14	4310,46
630,21	4423,64
630,29	4322,17
630,37	4285,09
630,44	4353,39
630,52	4257,77
630,59	4232,41
630,67	4255,82
630,75	4199,24
630,82	4271,43
630,90	4372,90
630,97	4238,26
631,05	4378,76
631,13	4378,76
631,20	4456,81
631,28	4413,88
631,35	4378,76
631,43	4441,20
631,50	4409,98
631,58	4328,02
631,66	4419,73
631,73	4523,15
631,81	4550,47
631,88	4511,45
631,96	4306,56
632,03	4429,49
632,11	4470,47
632,19	4569,99
632,26	4484,13
632,34	4529,01
632,41	4575,84
632,49	4478,27
632,56	4579,74
632,64	4587,55
632,72	4499,74
632,79	4616,82
632,87	4478,27
632,94	4755,36
633,02	4525,11
633,09	4501,69
633,17	4505,59
633,25	4544,62
633,32	4546,57
633,40	4583,64
633,47	4622,67
633,55	4515,35
633,62	4710,48
633,70	4724,14
633,77	4729,99
633,85	4788,53
633,93	4735,85
634,00	4677,31
634,08	4573,89
634,15	4702,68
634,23	4739,75
634,30	4739,75
634,38	4616,82
634,45	4710,48
634,53	4813,90
634,60	4745,60
634,68	4671,45
634,76	4759,26
634,83	4681,21
634,91	4888,05
634,98	4866,59
635,06	4767,07
635,13	4696,82
635,21	4868,54
635,28	4729,99
635,36	4782,68
635,43	4747,56
635,51	4837,32
635,58	4833,41
635,66	4866,59
635,74	4833,41
635,81	4890,00
635,89	4884,15
635,96	4843,17
636,04	4985,62
636,11	4917,32
636,19	4927,08
636,26	5051,96
636,34	4923,17
636,41	4907,56
636,49	4823,66
636,56	4886,10
636,64	4850,98
636,71	4915,37
636,79	4919,27
636,86	5022,69
636,94	4909,51
637,01	4899,76
637,09	4895,86
637,16	4886,10
637,24	4989,52
637,31	4909,51
637,39	5044,16
637,46	4831,46
637,54	4929,03
637,61	4901,71
637,69	4835,36
637,76	4839,27
637,84	5003,18
637,91	4903,66
637,99	4784,63
638,06	4903,66
638,14	5038,30
638,21	4971,96
638,29	4929,03
638,36	4925,13
638,44	4882,20
638,51	4946,59
638,59	4971,96
638,66	4942,69
638,74	4901,71
638,81	4923,17
638,89	4833,41
638,96	4882,20
639,04	4835,36
639,11	4960,25
639,19	4950,49
639,26	4811,95
639,34	4888,05
639,41	4794,39
639,49	4821,71
639,56	4776,83
639,64	4571,94
639,71	4687,06
639,79	4589,50
639,86	4525,11
639,94	4495,84
640,01	4536,81
640,09	4505,59
640,16	4593,40
640,24	4673,41
640,31	4488,03
640,39	4761,21
640,46	4628,53
640,53	4571,94
640,61	4568,03
640,68	4569,99
640,76	4558,28
640,83	4441,20
640,91	4595,35
640,98	4527,06
641,06	4610,96
641,13	4648,04
641,21	4554,38
641,28	4575,84
641,36	4523,15
641,43	4470,47
641,50	4509,49
641,58	4435,34
641,65	4468,52
641,73	4458,76
641,80	4341,68
641,88	4404,12
641,95	4367,05
642,03	4240,21
642,10	4355,34
642,18	4324,12
642,25	4351,44
642,32	4326,07
642,40	4238,26
642,47	4289,00
642,55	4273,39
642,62	4158,26
642,70	4160,21
642,77	4148,50
642,85	4076,30
642,92	4107,52
642,99	4251,92
643,07	4226,55
643,14	4045,08
643,22	4160,21
643,29	4140,70
643,37	4107,52
643,44	4127,04
643,51	4089,96
643,59	4027,52
643,66	4111,43
643,74	4023,62
643,81	4091,91
643,89	4089,96
643,96	3929,95
644,03	3955,32
644,11	4033,37
644,18	3887,02
644,26	3972,88
644,33	3998,25
644,41	3939,71
644,48	3943,61
644,55	3922,15
644,63	4093,86
644,70	3871,41
644,78	3916,29
644,85	3777,75
644,93	3846,05
645,00	3697,75
645,07	3949,47
645,15	3732,87
645,22	3695,80
645,30	3775,80
645,37	3693,84
645,44	3695,80
645,52	3684,09
645,59	3760,19
645,67	3725,07
645,74	3707,50
645,81	3834,34
645,89	3668,48
645,96	3771,90
646,04	3754,33
646,11	3680,18
646,18	3754,33
646,26	3555,30
646,33	3656,77
646,41	3633,35
646,48	3670,43
646,55	3637,26
646,63	3682,14
646,70	3697,75
646,78	3631,40
646,85	3633,35
646,92	3606,03
647,00	3674,33
647,07	3572,86
647,15	3582,62
647,22	3514,32
647,29	3590,42
647,37	3682,14
647,44	3490,91
647,51	3633,35
647,59	3586,52
647,66	3524,08
647,74	3545,54
647,81	3727,02
647,88	3576,77
647,96	3533,84
648,03	3529,93
648,10	3535,79
648,18	3467,49
648,25	3524,08
648,33	3506,52
648,40	3524,08
648,47	3547,50
648,55	3535,79
648,62	3451,88
648,69	3524,08
648,77	3447,98
648,84	3467,49
648,92	3488,96
648,99	3442,12
649,06	3565,06
649,14	3459,69
649,21	3508,47
649,28	3567,01
649,36	3418,71
649,43	3354,31
649,50	3473,35
649,58	3444,08
649,65	3418,71
649,72	3430,42
649,80	3389,44
649,87	3434,32
649,94	3391,39
650,02	3527,98
650,09	3432,37
650,17	3352,36
650,24	3387,49
650,31	3377,73
650,39	3403,10
650,46	3596,28
650,53	3420,66
650,61	3418,71
650,68	3381,63
650,75	3367,97
650,83	3389,44
650,90	3387,49
650,97	3461,64
651,05	3313,34
651,12	3440,17
651,19	3399,20
651,27	3379,68
651,34	3490,91
651,41	3369,93
651,49	3408,95
651,56	3494,81
651,63	3305,53
651,71	3340,66
651,78	3369,93
651,85	3471,39
651,93	3354,31
652,00	3334,80
652,07	3364,07
652,15	3272,36
652,22	3229,43
652,29	3256,75
652,37	3301,63
652,44	3297,73
652,51	3469,44
652,59	3338,70
652,66	3325,05
652,73	3387,49
652,80	3369,93
652,88	3280,16
652,95	3327,00
653,02	3336,75
653,10	3262,60
653,17	3327,00
653,24	3297,73
653,32	3379,68
653,39	3315,29
653,46	3305,53
653,54	3364,07
653,61	3178,70
653,68	3332,85
653,75	3303,58
653,83	3295,78
653,90	3282,12
653,97	3258,70
654,05	3235,28
654,12	3246,99
654,19	3348,46
654,27	3319,19
654,34	3170,89
654,41	3229,43
654,48	3157,23
654,56	3196,26
654,63	3250,90
654,70	3227,48
654,78	3213,82
654,85	3213,82
654,92	3323,09
654,99	3311,39
655,07	3229,43
655,14	3299,68
655,21	3256,75
655,29	3225,53
655,36	3219,67
655,43	3268,46
655,50	3287,97
655,58	3246,99
655,65	3246,99
655,72	3225,53
655,80	3225,53
655,87	3239,19
655,94	3367,97
656,01	3184,55
656,09	3293,82
656,16	3270,41
656,23	3274,31
656,30	3190,40
656,38	3352,36
656,45	3165,04
656,52	3250,90
656,59	3194,31
656,67	3221,63
656,74	3237,24
656,81	3213,82
656,89	3280,16
656,96	3227,48
657,03	3233,33
657,10	3291,87
657,18	3092,84
657,25	3215,77
657,32	3284,07
657,39	3094,79
657,47	3081,13
657,54	3207,97
657,61	3172,84
657,68	3245,04
657,76	3209,92
657,83	3194,31
657,90	3176,74
657,97	3311,39
658,05	3252,85
658,12	3172,84
658,19	3231,38
658,26	3149,43
658,34	3235,28
658,41	3225,53
658,48	3178,70
658,55	3227,48
658,63	3147,48
658,70	3233,33
658,77	3168,94
658,84	3141,62
658,91	3206,01
658,99	3176,74
659,06	3293,82
659,13	3153,33
659,20	3206,01
659,28	3252,85
659,35	3157,23
659,42	3184,55
659,49	3200,16
659,57	3252,85
659,64	3280,16
659,71	3217,72
659,78	3141,62
659,85	3141,62
659,93	3198,21
660,00	3243,09
660,07	3332,85
660,14	3338,70
660,22	3198,21
660,29	3237,24
660,36	3202,11
660,43	3239,19
660,50	3108,45
660,58	3229,43
660,65	3295,78
660,72	3223,58
660,79	3270,41
660,86	3184,55
660,94	3233,33
661,01	3161,13
661,08	3200,16
661,15	3227,48
661,22	3157,23
661,30	3196,26
661,37	3235,28
661,44	3176,74
661,51	3139,67
661,59	3245,04
661,66	3178,70
661,73	3104,55
661,80	3188,45
661,87	3161,13
661,94	3233,33
662,02	3168,94
662,09	3194,31
662,16	3202,11
662,23	3079,18
662,30	3126,01
662,38	3200,16
662,45	3141,62
662,52	3282,12
662,59	3221,63
662,66	3198,21
662,74	3293,82
662,81	3170,89
662,88	3233,33
662,95	3190,40
663,02	3248,94
663,09	3176,74
663,17	3157,23
663,24	3165,04
663,31	3100,64
663,38	3126,01
663,45	3266,51
663,53	3170,89
663,60	3209,92
663,67	3196,26
663,74	3213,82
663,81	3241,14
663,88	3239,19
663,96	3126,01
664,03	3190,40
664,10	3127,96
664,17	3168,94
664,24	3165,04
664,31	3272,36
664,39	3108,45
664,46	3186,50
664,53	3106,50
664,60	3206,01
664,67	3258,70
664,74	3188,45
664,82	3200,16
664,89	3227,48
664,96	3151,38
665,03	3206,01
665,10	3166,99
665,17	3176,74
665,24	3159,18
665,32	3178,70
665,39	3104,55
665,46	3186,50
665,53	3165,04
665,60	3194,31
665,67	3207,97
665,74	3116,25
665,82	3110,40
665,89	3147,48
665,96	3328,95
666,03	3036,25
666,10	3219,67
666,17	3264,55
666,24	3231,38
666,32	3194,31
666,39	3200,16
666,46	3213,82
666,53	3227,48
666,60	3223,58
666,67	3126,01
666,74	3153,33
666,82	3213,82
666,89	3092,84
666,96	3168,94
667,03	3124,06
667,10	3246,99
667,17	3202,11
667,24	3149,43
667,31	3176,74
667,39	3223,58
667,46	3141,62
667,53	3184,55
667,60	3163,09
667,67	3223,58
667,74	3207,97
667,81	3151,38
667,88	3215,77
667,96	3094,79
668,03	3270,41
668,10	3176,74
668,17	3151,38
668,24	3165,04
668,31	3209,92
668,38	3215,77
668,45	3270,41
668,52	3096,74
668,60	3100,64
668,67	3149,43
668,74	3250,90
668,81	3161,13
668,88	3330,90
668,95	3141,62
669,02	3190,40
669,09	3315,29
669,16	3157,23
669,23	3170,89
669,31	3170,89
>>>>>End Processed Spectral Data<<<<<
